Wavelength (nm),Abs
200,0.255990416
201,0.262922823
202,0.268020034
203,0.270521402
204,0.277017653
205,0.278163195
206,0.278965086
207,0.279455602
208,0.279407531
209,0.278623164
210,0.27734229
211,0.275134981
212,0.27267614
213,0.269821227
214,0.266692609
215,0.263991296
216,0.260095239
217,0.257458806
218,0.254007191
219,0.250201613
220,0.246840149
221,0.243246049
222,0.239901409
223,0.236271754
224,0.232854858
225,0.229020745
226,0.225791141
227,0.222250059
228,0.219147414
229,0.216252372
230,0.212654248
231,0.20966731
232,0.206402481
233,0.202764764
234,0.200269401
235,0.196926847
236,0.193451315
237,0.190699875
238,0.187326714
239,0.184994906
240,0.182600811
241,0.179697782
242,0.177447483
243,0.175243422
244,0.172899887
245,0.170918211
246,0.169093326
247,0.16677855
248,0.165253878
249,0.162931949
250,0.161368966
251,0.159673914
252,0.158616588
253,0.157425478
254,0.155231178
255,0.154395521
256,0.153086901
257,0.152039781
258,0.150072202
259,0.149260163
260,0.147776499
261,0.146044716
262,0.14467299
263,0.143456176
264,0.142232925
265,0.140484899
266,0.138899744
267,0.137680605
268,0.135771781
269,0.134001508
270,0.132787034
271,0.130895868
272,0.129169896
273,0.127802834
274,0.126003742
275,0.124607489
276,0.12294022
277,0.121827886
278,0.119894631
279,0.118531719
280,0.117100291
281,0.115495883
282,0.113683969
283,0.112471893
284,0.110790171
285,0.109348126
286,0.108014017
287,0.106602944
288,0.10517706
289,0.10386008
290,0.102664456
291,0.101652257
292,0.099905387
293,0.098581016
294,0.097321369
295,0.096132055
296,0.095105529
297,0.092695162
298,0.092151187
299,0.090958469
300,0.089154087
301,0.087810211
302,0.087058693
303,0.086214311
304,0.084398307
305,0.083813094
306,0.082196623
307,0.081406817
308,0.080634549
309,0.079533719
310,0.077588588
311,0.076833151
312,0.075806499
313,0.074681848
314,0.073900416
315,0.072997056
316,0.071575701
317,0.07114166
318,0.06989444
319,0.06886059
320,0.068419367
321,0.067147516
322,0.06643299
323,0.065874219
324,0.064705707
325,0.063590102
326,0.063159712
327,0.062613085
328,0.061595868
329,0.059845932
330,0.059645582
331,0.058800727
332,0.057908468
333,0.057420317
334,0.057169877
335,0.055755254
336,0.054965165
337,0.054362029
338,0.053435624
339,0.052614909
340,0.052055679
341,0.050763946
342,0.050758127
343,0.049664766
344,0.049122564
345,0.047813971
346,0.047213033
347,0.046262026
348,0.045739412
349,0.044226032
350,0.043667473
351,0.042997498
352,0.04261481
353,0.041748863
354,0.038351443
355,0.041517492
356,0.039832227
357,0.039616365
358,0.038182754
359,0.037575059
360,0.037325338
361,0.036519077
362,0.035983164
363,0.035296936
364,0.034198187
365,0.03396333
366,0.03337431
367,0.032854766
368,0.032364763
369,0.031190034
370,0.031217404
371,0.030334556
372,0.029841177
373,0.02929751
374,0.028881907
375,0.02838343
376,0.027622165
377,0.027130643
378,0.026464332
379,0.026104702
380,0.025627358
381,0.025141954
382,0.024083616
383,0.024425805
384,0.023590887
385,0.02350576
386,0.023163423
387,0.022665054
388,0.022065958
389,0.021601601
390,0.021202317
391,0.021044778
392,0.020465195
393,0.019680047
394,0.019386048
395,0.019345367
396,0.01885782
397,0.018762425
398,0.018285736
399,0.018129116
400,0.0177819
401,0.016977655
402,0.017178563
403,0.01629496
404,0.016343957
405,0.016162189
406,0.015930142
407,0.015564851
408,0.015043258
409,0.014833826
410,0.014438652
411,0.014343581
412,0.014031246
413,0.013887404
414,0.013455121
415,0.01326583
416,0.013280455
417,0.012865307
418,0.01257511
419,0.012287504
420,0.01220616
421,0.012122676
422,0.011694352
423,0.011502397
424,0.011312918
425,0.011201714
426,0.010775942
427,0.010728737
428,0.010601183
429,0.010146056
430,0.010322196
431,0.009918977
432,0.009990834
433,0.010021985
434,0.009659696
435,0.0095337
436,0.009123147
437,0.009042632
438,0.008959833
439,0.008692039
440,0.008453708
441,0.008251149
442,0.007890202
443,0.007665326
444,0.007514226
445,0.007657738
446,0.007715203
447,0.007546518
448,0.007353359
449,0.007326347
450,0.007175944
451,0.006959276
452,0.006805713
453,0.006647526
454,0.006786781
455,0.006388615
456,0.006488924
457,0.006212172
458,0.006269867
459,0.00609292
460,0.006095939
461,0.00576078
462,0.00547335
463,0.00566932
464,0.005684295
465,0.005527433
466,0.005376447
467,0.005608112
468,0.005229625
469,0.005346308
470,0.005037285
471,0.005143804
472,0.004996093
473,0.004655736
474,0.004657385
475,0.00471469
476,0.004780352
477,0.004618244
478,0.004405959
479,0.004444584
480,0.004261218
481,0.003982302
482,0.004381902
483,0.00387638
484,0.00375769
485,0.003931754
486,0.003650022
487,0.003988493
488,0.003806912
489,0.003420859
490,0.003785368
491,0.003692078
492,0.003537265
493,0.003423547
494,0.003380995
495,0.003444054
496,0.003374499
497,0.003280436
498,0.003096986
499,0.003208142
500,0.003115497
501,0.002792477
502,0.003210411
503,0.003029649
504,0.00282606
505,0.002811392
506,0.002989951
507,0.002687183
508,0.002752565
509,0.002822673
510,0.002552074
511,0.002455144
512,0.002397069
513,0.002729277
514,0.002394023
515,0.002567802
516,0.00224969
517,0.00235964
518,0.002573661
519,0.002243757
520,0.002385798
521,0.002523563
522,0.002446241
523,0.001983973
524,0.002217894
525,0.002087405
526,0.001977576
527,0.001882489
528,0.002113677
529,0.001921047
530,0.001826544
531,0.001850304
532,0.001957319
533,0.001859117
534,0.00172949
535,0.001723304
536,0.001656674
537,0.001691105
538,0.001793584
539,0.001775389
540,0.001654569
541,0.001700357
542,0.001517131
543,0.001349459
544,0.001386593
545,0.001683491
546,0.001408667
547,0.001229069
548,0.001200437
549,0.001346291
550,0.001173727
551,0.001196309
552,0.001282211
553,0.001329569
554,0.001351381
555,0.00106636
556,0.001376102
557,0.001051466
558,0.000944518
559,0.0011002
560,0.001191507
561,0.001311446
562,0.001184733
563,0.000869629
564,0.000994097
565,0.000996951
566,0.001007537
567,0.000973523
568,0.001314406
569,0.001052452
570,0.000988934
571,0.000962471
572,0.001010546
573,0.00092763
574,0.000797657
575,0.000809172
576,0.000591742
577,0.000925477
578,0.000756166
579,0.000752302
580,0.000546667
581,0.000773021
582,0.000753184
583,0.000639777
584,0.000743512
585,0.000719423
586,0.000742085
587,0.000431086
588,0.00072339
589,0.000913362
590,0.000541173
591,0.000455962
592,0.000622771
593,0.000398127
594,0.000471018
595,0.000459149
596,0.000670731
597,0.000439144
598,0.000650872
599,0.000494004
600,0.000429505
601,0.000504578
602,0.000413959
603,0.000336311
604,0.000418234
605,0.000458372
606,0.000424452
607,0.000431189
608,0.000459253
609,0.000410512
610,0.000515229
611,0.000464099
612,0.000583888
613,0.000525337
614,0.000273468
615,0.000332555
616,0.000186548
617,8.85E-05
618,0.000434791
619,0.000202864
620,0.000166375
621,0.000279374
622,0.000105938
623,0.000389474
624,0.000363773
625,0.000101381
626,0.000199834
627,0.000101278
628,0.000223686
629,-0.000146852
630,0.000195872
631,0.000133204
632,0.000279399
633,0.00014628
634,-4.04E-06
635,0.00016609
636,5.56E-05
637,0.00015032
638,9.06E-05
639,9.65E-05
640,0.000168369
641,0.00018067
642,0.000110987
643,0.000209131
644,0.000122846
645,0.000273727
646,5.68E-05
647,0.000205739
648,0.000128543
649,0.000119428
650,2.06E-05
651,2.60E-05
652,-3.95E-05
653,-0.000109639
654,-0.000153942
655,-3.68E-05
656,-5.57E-05
657,2.93E-06
658,-0.000145714
659,8.69E-05
660,-4.48E-05
661,-0.000167864
662,0.00010599
663,-6.79E-05
664,-0.000290447
665,-0.000197569
666,-0.000120405
667,-5.53E-05
668,6.73E-05
669,0.000251296
670,7.41E-05
671,-0.000264112
672,0.000285979
673,-0.000279375
674,-0.000525116
675,-8.37E-05
676,-0.000152183
677,-0.000179767
678,-0.000232497
679,-0.000177386
680,-0.000177748
681,0.00038323
682,-1.39E-05
683,-0.000183855
684,-0.000119732
685,-0.000148612
686,-0.00025811
687,-0.000316263
688,-0.000119163
689,-0.000195809
690,-0.000235809
691,-0.000247089
692,-0.000246365
693,-0.000176972
694,-7.02E-05
695,-9.49E-05
696,-0.000370788
697,-0.000189185
698,-0.000196792
699,2.97E-05
700,-0.000365046
701,-0.000115074
702,-1.40E-06
703,-0.000232653
704,-3.51E-05
705,-0.000332507
706,-0.000254126
707,-0.00023436
708,-0.000372495
709,-0.000223701
710,-0.000377667
711,-0.000350975
712,8.45E-05
713,-0.000215784
714,-0.000573823
715,-5.24E-05
716,-0.000801414
717,-0.000334525
718,-0.000120819
719,-0.000381443
720,-0.000377409
721,-0.000387288
722,-0.000435442
723,-0.000311193
724,-0.000576615
725,-0.000349579
726,-0.000570204
727,-0.000521082
728,-0.000417444
729,-0.000272908
730,-0.000396444
731,-0.000447286
732,-0.000444235
733,-0.000299604
734,-0.000335663
735,-0.00047873
736,-0.000324437
737,-0.00040234
738,-0.000576357
739,-0.000541507
740,-0.00030395
741,-0.000321333
742,-0.000564878
743,-0.000411444
744,-0.000392047
745,-0.000469111
746,-0.000478058
747,-0.000306278
748,-0.000649562
749,-0.000186132
750,-0.000283566
751,-0.000425254
752,-0.000266802
753,-0.00017987
754,-0.00028786
755,-0.000539594
756,-0.000585767
757,-0.000420547
758,-0.000543886
759,-0.000607791
760,-0.000440666
761,-0.000459181
762,-0.000399806
763,-0.000807667
764,-0.000488969
765,-0.000272908
766,-0.000428046
767,-0.000282324
768,-0.000188926
769,-0.000388995
770,-0.00050619
771,-0.000241604
772,-0.000552314
773,-0.000643669
774,-0.000386099
775,-0.000416668
776,-0.000233739
777,-0.000352889
778,-0.000379685
779,-0.000334835
780,-0.000292775
781,-0.000451889
782,-0.000501484
783,-0.000618958
784,-0.000194308
785,-0.000409892
786,-0.000328162
787,-0.000225667
788,-0.000805497
789,-0.000656489
790,-0.000460681
791,-0.000492538
792,-0.000248279
793,-0.000489849
794,-0.000367994
795,-0.000504845
796,-0.000266233
797,-0.000233377
798,-0.000551642
799,-0.000359356
800,-0.000575478
